0.900414937759
0.673228346457
0.662551440329
0.576612903226
0.732
0.876494023904
0.952380952381
0.719827586207
0.925110132159
1.0
0.930434782609
0.763948497854
0.54
0.899408284024
0.987394957983
0.980582524272
0.869565217391
0.806034482759
0.857740585774
0.747826086957
0.776824034335
0.924901185771
0.69512195122
0.844827586207
0.972602739726
0.988095238095
0.85306122449
0.878661087866
0.97131147541
0.98347107438
0.874509803922
0.641434262948
0.977973568282
0.716738197425
0.967871485944
0.970588235294
0.967611336032
0.903225806452
0.909448818898
0.823529411765
0.951807228916
0.68202764977
0.995833333333
0.840637450199
0.72602739726
0.857142857143
0.832
0.988095238095
0.962025316456
0.889328063241
0.882591093117
0.896
0.785425101215
0.882845188285
0.986956521739
0.904522613065
0.979423868313
0.964285714286
0.821428571429
0.85593220339
0.912863070539
0.976
0.862903225806
0.834024896266
0.899543378995
0.780991735537
0.97628458498
0.98031496063
0.838709677419
0.965665236052
0.818897637795
0.984251968504
0.978835978836
0.927659574468
0.90873015873
0.935483870968
0.969543147208
0.662601626016
0.811764705882
0.765690376569
0.839662447257
0.907630522088
0.943319838057
0.90134529148
0.879518072289
0.927710843373
0.895833333333
0.995555555556
0.792156862745
0.904
0.907949790795
0.933333333333
0.841666666667
0.918660287081
0.926267281106
0.962343096234
0.916
0.912698412698
0.791164658635
0.982532751092
0.886639676113
0.976377952756
0.718253968254
0.620408163265
0.809954751131
0.920168067227
0.690082644628
0.987447698745
0.878504672897
0.988095238095
0.880952380952
0.977375565611
0.905138339921
0.911290322581
0.833333333333
0.90157480315
0.920948616601
0.611764705882
0.958506224066
0.678861788618
0.787401574803
0.991701244813
0.550925925926
0.774468085106
0.629032258065
0.995798319328
0.983805668016
0.820276497696
0.895161290323
0.681415929204
0.987012987013
0.643137254902
0.723684210526
0.788235294118
0.742063492063
0.660079051383
0.959016393443
0.827450980392
0.862903225806
0.866972477064
0.977973568282
0.877729257642
0.931914893617
0.833992094862
0.738197424893
0.815789473684
0.972850678733
0.846153846154
0.8375
0.932806324111
0.949152542373
0.930612244898
0.913043478261
0.577075098814
0.883928571429
0.987755102041
0.832
0.949367088608
0.858823529412
0.834042553191
0.812749003984
0.740157480315
0.777777777778
0.895161290323
0.916666666667
0.938016528926
0.834042553191
0.95
0.830357142857
0.801724137931
0.871369294606
0.814229249012
0.818897637795
0.936893203883
0.943722943723
0.589211618257
0.917748917749
0.679166666667
1.0
0.862745098039
0.834080717489
0.922448979592
0.728346456693
0.834710743802
0.837398373984
0.896103896104
0.81974248927
0.65991902834
0.991071428571
0.869565217391
0.723849372385
0.881147540984
0.806034482759
0.928571428571
0.745283018868
0.94358974359
0.75
0.979508196721
0.551020408163
0.766393442623
0.991304347826
0.868778280543
0.988047808765
0.784552845528
0.793522267206
0.956175298805
0.805668016194
0.969827586207
0.820143884892
0.699570815451
0.928571428571
0.958158995816
0.798319327731
0.902654867257
0.893700787402
0.555555555556
0.976744186047
0.81568627451
0.848739495798
0.79295154185
0.929166666667
0.937007874016
0.807086614173
0.995884773663
0.865853658537
0.860169491525
0.887892376682
0.983695652174
0.702479338843
0.82096069869
0.877470355731
0.886075949367
0.722727272727
0.930327868852
0.856382978723
0.845070422535
0.822314049587
0.948
0.873015873016
0.986486486486
0.823529411765
0.747474747475
0.956349206349
0.880165289256
0.713114754098
0.814049586777
0.680672268908
0.936073059361
0.916334661355
0.991967871486
0.90243902439
0.984251968504
0.959183673469
0.864628820961
0.973544973545
0.657024793388
0.96837944664
0.884615384615
0.827272727273
0.838842975207
0.938864628821
0.792
0.866666666667
0.807860262009
0.813278008299
0.941176470588
0.952173913043
0.886554621849
0.96261682243
0.892430278884
0.929824561404
0.932806324111
0.872727272727
0.95951417004
0.877729257642
0.89029535865
0.749003984064
0.871244635193
0.864541832669
0.957983193277
0.816666666667
0.919678714859
0.921487603306
0.934693877551
0.990697674419
0.978448275862
0.84140969163
