0.342549923195
0.268031189084
0.349896480331
0.269230769231
0.367941712204
0.221212121212
0.283333333333
0.331337325349
0.390476190476
0.346808510638
0.260903426791
0.342696629213
0.335802469136
0.328947368421
0.231205673759
0.282178217822
0.359090909091
0.336898395722
0.247967479675
0.235465116279
0.350828729282
0.259971509972
0.247563352827
0.353741496599
0.313771517997
0.308567603748
0.322966507177
0.284126984127
0.298171589311
0.445378151261
0.282511210762
0.36231884058
0.285285285285
0.280439121756
0.258644536653
0.368686868687
0.337517433752
0.250744047619
0.238095238095
0.211111111111
0.333333333333
0.273648648649
0.198047419805
0.200631911532
0.341719077568
0.266203703704
0.309294871795
0.295850066934
0.327485380117
0.351851851852
0.384556574924
0.274553571429
0.231958762887
0.236966824645
0.303964757709
0.294444444444
0.260504201681
0.262002743484
0.359098228663
0.330858085809
0.328787878788
0.390027322404
0.255451713396
0.222222222222
0.310490693739
0.268959435626
0.247638326586
0.323962516734
0.28125
0.316296296296
0.347756410256
0.398666666667
0.308108108108
0.401376146789
0.297671033479
0.199712643678
0.32722513089
0.324130879346
0.302737520129
0.347905282332
0.234505862647
0.274336283186
0.336909871245
0.312603648425
0.278538812785
0.248196248196
0.298449612403
0.383928571429
0.316831683168
0.27802359882
0.28955453149
0.397058823529
0.267326732673
0.209201388889
0.358208955224
0.323913043478
0.275109170306
0.234057971014
0.257191201354
0.205185185185
0.290715372907
0.293682795699
0.357274401473
0.260964912281
0.309124767225
0.292237442922
0.310379241517
0.253531073446
0.304078014184
0.372155287818
0.267267267267
0.274691358025
0.267103347889
0.295722713864
0.245528455285
0.310043668122
0.223175965665
0.337606837607
0.266233766234
0.363273453094
0.250833333333
0.374476987448
0.296918767507
0.315934065934
0.345085470085
0.298874824191
0.296296296296
0.303370786517
0.367117117117
0.241341991342
0.255847953216
0.29674796748
0.337373737374
0.320066334992
0.360962566845
0.270459081836
0.214387464387
0.313586097946
0.211059190031
0.306878306878
0.353603603604
0.299336650083
0.325722983257
0.326224328594
0.358527131783
0.267921146953
0.217054263566
0.305422647528
0.313432835821
0.377824858757
0.323660714286
0.28581871345
0.36075036075
0.341324200913
0.320707070707
0.275482093664
0.362179487179
0.336296296296
0.424657534247
0.281462585034
0.316176470588
0.335106382979
0.299450549451
0.212462462462
0.356421356421
0.345080763583
0.221088435374
0.297514619883
0.356630824373
0.309139784946
0.34126984127
0.2928802589
0.330128205128
0.217616580311
0.312691131498
0.176056338028
0.342767295597
0.329243353783
0.352646638054
0.284848484848
0.256272401434
0.233775811209
0.292792792793
0.278877887789
0.36003236246
0.324476650564
0.232984293194
0.356850715746
0.265015015015
0.218181818182
0.285163776493
0.346511627907
0.400178253119
0.34188034188
0.310126582278
0.333333333333
0.255731922399
0.299860529986
0.218518518519
0.292335115865
0.366228070175
0.294270833333
0.262768817204
0.367875647668
0.250850340136
0.340972222222
0.335845896147
0.301481481481
0.252923976608
0.322085889571
0.309954751131
0.293304221252
0.349122807018
0.285947712418
0.381057268722
0.396428571429
0.311507936508
0.224358974359
0.273102310231
0.387962962963
0.393871449925
0.268207282913
0.279674796748
0.385674931129
0.350547730829
0.26026272578
0.376262626263
0.28453038674
0.36862745098
0.353723404255
0.232732732733
0.315079365079
0.240041928721
0.384728340675
0.22049689441
0.385185185185
0.345058626466
0.251054852321
0.356060606061
0.401065449011
0.252380952381
0.384009009009
0.312586445367
0.208920187793
0.272988505747
0.307106598985
0.348765432099
0.258536585366
0.391304347826
0.343454790823
0.25975975976
0.386
0.391489361702
0.274410774411
0.327898550725
0.311320754717
0.354421768707
0.349436392915
0.240842490842
0.247947454844
0.298449612403
0.308922558923
0.265811965812
0.32972972973
0.364795918367
0.372596153846
0.224505327245
0.327014218009
0.36003236246
0.281994047619
0.305031446541
0.362994350282
0.1953125
0.241912798875
0.257048092869
0.304897314376
0.334219858156
0.228243021346
0.334101382488
0.233918128655
0.329081632653
0.363901018923
0.373692077728
0.416302765648
0.327856025039
0.301762114537
0.324607329843
