0.945098039216
0.996078431373
0.952941176471
0.972549019608
0.980392156863
0.98431372549
0.988235294118
0.909803921569
0.890196078431
0.921568627451
0.901960784314
0.913725490196
0.980392156863
0.662745098039
0.933333333333
0.807843137255
0.992156862745
0.909803921569
0.937254901961
0.901960784314
0.913725490196
0.992156862745
0.964705882353
0.909803921569
0.858823529412
0.988235294118
0.960784313725
0.937254901961
0.956862745098
0.949019607843
1.0
0.98431372549
0.890196078431
0.913725490196
0.976470588235
0.933333333333
0.96862745098
0.972549019608
0.996078431373
1.0
0.976470588235
0.850980392157
0.941176470588
0.98431372549
0.858823529412
0.988235294118
0.980392156863
0.988235294118
0.929411764706
0.992156862745
0.96862745098
0.980392156863
0.96862745098
0.937254901961
0.901960784314
0.780392156863
0.952941176471
0.988235294118
0.988235294118
0.925490196078
0.945098039216
0.980392156863
0.972549019608
0.945098039216
0.858823529412
0.949019607843
0.992156862745
0.996078431373
0.972549019608
0.913725490196
0.996078431373
0.996078431373
0.741176470588
0.921568627451
0.988235294118
0.972549019608
0.772549019608
0.964705882353
1.0
0.937254901961
0.929411764706
0.976470588235
0.96862745098
0.874509803922
0.976470588235
0.976470588235
0.941176470588
0.882352941176
1.0
0.980392156863
0.937254901961
1.0
0.941176470588
0.819607843137
0.850980392157
0.937254901961
0.980392156863
0.988235294118
0.976470588235
0.898039215686
0.96862745098
0.996078431373
0.988235294118
0.960784313725
0.866666666667
0.933333333333
0.949019607843
0.937254901961
0.839215686275
0.988235294118
0.988235294118
0.866666666667
0.992156862745
0.972549019608
0.964705882353
0.996078431373
0.992156862745
1.0
0.945098039216
0.964705882353
0.996078431373
0.945098039216
0.847058823529
0.921568627451
0.972549019608
0.933333333333
0.96862745098
0.850980392157
0.972549019608
0.886274509804
0.905882352941
1.0
0.894117647059
1.0
0.988235294118
0.992156862745
0.956862745098
1.0
0.972549019608
0.854901960784
0.890196078431
0.898039215686
0.921568627451
0.992156862745
0.913725490196
0.894117647059
0.866666666667
0.96862745098
0.941176470588
0.992156862745
0.925490196078
0.960784313725
0.992156862745
0.992156862745
0.878431372549
0.960784313725
0.980392156863
0.929411764706
1.0
0.921568627451
0.98431372549
0.996078431373
0.917647058824
0.972549019608
0.988235294118
0.949019607843
0.921568627451
0.941176470588
0.878431372549
0.909803921569
0.945098039216
0.992156862745
0.996078431373
0.807843137255
0.905882352941
0.945098039216
0.905882352941
0.941176470588
0.913725490196
1.0
0.874509803922
0.960784313725
0.996078431373
0.949019607843
0.964705882353
0.905882352941
0.913725490196
0.96862745098
0.878431372549
0.992156862745
0.937254901961
0.956862745098
0.909803921569
0.988235294118
0.83137254902
0.764705882353
0.988235294118
0.956862745098
0.960784313725
0.956862745098
0.901960784314
0.866666666667
0.98431372549
0.964705882353
0.96862745098
0.98431372549
0.96862745098
0.909803921569
0.545098039216
0.913725490196
0.933333333333
0.937254901961
0.933333333333
0.886274509804
0.996078431373
0.988235294118
0.674509803922
1.0
0.933333333333
0.890196078431
0.941176470588
0.996078431373
0.996078431373
0.952941176471
0.964705882353
0.925490196078
0.874509803922
0.721568627451
0.949019607843
0.898039215686
0.992156862745
0.929411764706
0.862745098039
0.956862745098
0.737254901961
0.835294117647
0.949019607843
0.980392156863
0.988235294118
0.870588235294
1.0
0.776470588235
0.988235294118
0.949019607843
0.956862745098
0.949019607843
0.933333333333
0.858823529412
0.98431372549
0.976470588235
0.964705882353
0.996078431373
0.960784313725
0.898039215686
0.741176470588
0.949019607843
0.992156862745
0.917647058824
0.862745098039
0.949019607843
0.898039215686
0.980392156863
0.882352941176
0.898039215686
0.945098039216
0.866666666667
0.901960784314
0.933333333333
0.839215686275
0.98431372549
0.894117647059
0.992156862745
0.862745098039
0.96862745098
0.898039215686
0.929411764706
0.98431372549
0.913725490196
0.98431372549
0.933333333333
0.941176470588
0.976470588235
0.949019607843
0.960784313725
0.843137254902
0.909803921569
0.890196078431
